wavelength[nm] mua[mm-1] std_mua[mm-1] rmus[mm-1] std_rmus[mm-1]
373.7206 1.20644567473448 0.217186117995993 5.25348608213532 0.689276573800835
378.1712 1.25006431182075 0.227172822191602 5.22646714825323 0.68521510166989
382.62181 1.31030650852105 0.242231350210568 5.19049781918992 0.679801081056427
387.07241 1.37932960886792 0.260789447133009 5.14431365662189 0.672921705493934
391.52301 1.45594213267202 0.282300114391358 5.08758122386535 0.66460408312886
395.97361 1.53764584597067 0.305700609010709 5.02104806825375 0.654996409118834
400.42421 1.61257808002047 0.326798360404099 4.94648525691597 0.64431520878197
404.87482 1.67000677437964 0.343035018549357 4.86642733699494 0.632776930865707
409.32542 1.70248944195842 0.351530867728579 4.78376746191798 0.620550817994164
413.77602 1.70427382692404 0.350558631319599 4.70130215559748 0.607767982153221
418.22662 1.67329634695038 0.339576452448418 4.62133086371747 0.594588188439035
422.67722 1.61178605919283 0.319220863968024 4.54539497281908 0.581279369725532
427.12783 1.52486110844997 0.291748072307115 4.47419873142364 0.568245497818248
431.57843 1.4182485717945 0.259443685618693 4.40770296282094 0.555968237081265
436.02903 1.3055579754211 0.226202271286203 4.3453380710874 0.544887025774359
440.47963 1.19350198037238 0.194658235896784 4.28625980679184 0.535283494018335
444.93023 1.08944779420012 0.166817578727421 4.22957322188036 0.527225256977789
449.38084 0.998754743466778 0.144157796426367 4.17447571822962 0.520576086873763
453.83144 0.922380652445139 0.126292753687325 4.12030715756993 0.515041073326858
458.28204 0.860228828935562 0.113085377991687 4.066529630836 0.51021694587553
462.73264 0.811014807883065 0.103682569771315 4.01268095390902 0.505644001412374
467.18324 0.770691320024175 0.0965524608368957 3.9583460931055 0.500870097563635
471.63385 0.736634929776928 0.0909556850108379 3.90317352776614 0.495526489332627
476.08445 0.705629413097128 0.0861355211018315 3.8469362546532 0.489396589082977
480.53505 0.676453308104623 0.0822149667498277 3.78961130876876 0.482453165525639
484.98565 0.648273250371882 0.0785637001034307 3.731439015852 0.474850700888392
489.43625 0.618941326853784 0.0749763985886606 3.672926392259 0.46687581624955
493.88686 0.589319117041929 0.072044426508453 3.61477872969733 0.458870770393788
498.33746 0.560197585707782 0.0692716601740046 3.55777025246212 0.45115024914954
502.78806 0.532767813272445 0.0676266069815443 3.50258827350158 0.443931438010528
507.23866 0.506838425838408 0.0668965340627856 3.44969761795695 0.437293199277506
511.68926 0.481969692821341 0.0674911501817954 3.39926642121864 0.431172163265805
516.13987 0.460413070931135 0.0696737244529227 3.35117489757416 0.425394710366255
520.59047 0.441997735615677 0.0730775396538323 3.30510128148574 0.419735728256595
525.04107 0.426330228531784 0.0775793846699891 3.26065379690689 0.413988321098753
529.49167 0.41207655867475 0.0824106129853199 3.21750451310721 0.408024694680279
533.94227 0.399382523241539 0.0869330272050312 3.17548233842764 0.40182926089649
538.39288 0.388623302852918 0.0906619824463912 3.13459924768567 0.395493746881197
542.84348 0.378101014366609 0.0934727573956946 3.09500822554263 0.389178064732659
547.29408 0.368133063156421 0.0951337846860052 3.05691424542428 0.383053092119758
551.74468 0.358187295176105 0.0957674489081096 3.02047443581936 0.377246270420546
556.19528 0.348015720582402 0.0954847057232762 2.98572334732335 0.371806317967552
560.64589 0.337614026697633 0.0941947051374605 2.95254747630098 0.366694506577454
565.09649 0.325732798639859 0.0919054132806366 2.92071365794363 0.361801679174071
569.54709 0.312717459792926 0.0882330591398994 2.88993616689466 0.356984515472414
573.99769 0.297490577970707 0.0831853152986164 2.85995604508462 0.352110979017132
578.44829 0.280158376818049 0.0766934274319891 2.83060408942807 0.347102132240425
582.8989 0.26134300681989 0.0689250583679176 2.80182837955874 0.341957423403559
587.3495 0.241350387983744 0.0604698123895655 2.7736820993966 0.336754596613959
591.8001 0.221390111987239 0.0520506605212874 2.74628153183312 0.331623773146016
596.2507 0.202283939506221 0.0446223024189871 2.71975390154628 0.326705567764492
600.7013 0.185622264435407 0.0387983310695908 2.69419445742251 0.322109644467186
605.15191 0.171747884238348 0.0349743091792176 2.66964568764296 0.317889049229347
609.60251 0.161142967900361 0.032832570059156 2.64610070652834 0.314036820927112
614.05311 0.153831563474713 0.0317860515408001 2.62352243267484 0.310500489398741
618.50371 0.149109627189882 0.0313016729819802 2.60186600899118 0.307204279052327
622.95431 0.146021477467153 0.0310891076988639 2.58109236956136 0.304069723569891
627.40492 0.14370255023802 0.0309627008990357 2.56116777586133 0.301030014447929
631.85552 0.14200428074869 0.0306234613887052 2.54205228848384 0.298036997831565
636.30612 0.140237955074631 0.0301328491123183 2.52368566076416 0.295061235754112
640.75672 0.138318370955055 0.029467650223596 2.50598126149989 0.292086919764265
645.20732 0.136503202224578 0.028616583840288 2.48883377872856 0.289104958604256
649.65793 0.134399228608544 0.0278328033133985 2.47213970389858 0.286108395303657
654.10853 0.132647451038541 0.027044119045196 2.45582241925928 0.283092555050072
658.55913 0.131085258556229 0.0263922219928186 2.43984945509763 0.280058659670655
663.00973 0.129777433091765 0.0259028523311756 2.42423196523288 0.277016981442176
667.46033 0.128874638659567 0.0255218354577976 2.40900218409066 0.273985527890373
671.91094 0.12803922474178 0.0253357671748731 2.39417428455846 0.270983202925783
676.36154 0.12734135129653 0.0252663707767425 2.37970212336104 0.268020166476096
680.81214 0.12730797301213 0.0250703615056958 2.36545042528086 0.265090450833394
685.26274 0.127417695150103 0.0248930582906517 2.35119418246884 0.262171613802273
689.71334 0.127468556894775 0.0247531411868523 2.33665166767855 0.259232869727924
694.16395 0.127259039837062 0.0246839556944728 2.32154545947254 0.256248902462045
698.61455 0.127249199246709 0.0244779182008424 2.30567528664532 0.253213603308163
703.06515 0.126751973753002 0.0243789347432363 2.28898017825266 0.250147928499116
707.51575 0.126446250308138 0.0241703518665793 2.27156971428359 0.247098855561798
711.96635 0.125933639372249 0.0239708117311834 2.25371177747852 0.244129699732196
716.41696 0.12518530212399 0.0238402923286068 2.23577791616712 0.241304582181506
720.86756 0.124537681095526 0.0236547348127641 2.21816101717707 0.238670986749581
725.31816 0.123983902635616 0.0234327663526054 2.20118890218277 0.236244760961791
729.76876 0.123130298742924 0.0233068528516884 2.18506024069366 0.234002276252302
734.21936 0.122494506906615 0.0231232486167358 2.16982163172207 0.231883573404598
738.66997 0.121687336731391 0.0229830968520765 2.15539196530357 0.229807709878071
743.12057 0.120784462807254 0.0228632289078242 2.14162456431303 0.227697131553586
747.57117 0.119691828848978 0.02280164810268 2.12838440626499 0.225503625550656
752.02177 0.118862571606147 0.0226829181192246 2.11561336059919 0.223226940311227
756.47237 0.117935918595486 0.0225706609146405 2.10335973456298 0.220919058376255
760.92298 0.117293192502678 0.0224531700551345 2.09176151752363 0.218671993744954
765.37358 0.115895727988067 0.0225419222075733 2.08098941365375 0.21659248823156
769.82418 0.115028773414302 0.0225239954689859 2.07117011998564 0.214771132109066
774.27478 0.114016922085339 0.0225811924674789 2.06231888964203 0.213255320677512
778.72538 0.112960897809235 0.0227120526867514 2.05430682461176 0.212034302328482
783.17599 0.111833865510616 0.0228599008588969 2.04687660669825 0.211041063344467
787.62659 0.110955992620774 0.0229510009891824 2.03970279278342 0.210170536992256
792.07719 0.110186957958539 0.0230172999325543 2.0324758007007 0.209308243568448
796.52779 0.109100828835209 0.0231293488929552 2.02498059109217 0.208360175065258
800.97839 0.108176182471136 0.0231825540559455 2.01714196182617 0.207274486363362
805.429 0.107187688445097 0.0232340596992957 2.00902123224479 0.206048706453926
809.8796 0.106209645557298 0.0232360227938575 2.0007672614183 0.204721189789444
814.3302 0.105122049292066 0.023226052983911 1.99254131135095 0.203350628086987
818.7808 0.104208262422685 0.0231542906351531 1.98444559163076 0.20199140381677
823.2314 0.103415593108882 0.0230256767159588 1.97648238972354 0.200673812285416
827.68201 0.102177833967894 0.0230065396427889 1.96855861880437 0.199396386741755
832.13261 0.10150474571128 0.0228247258757574 1.96053239439508 0.198132616015386
836.58321 0.100278738577523 0.0228051694330131 1.9522811688119 0.196848025179374
841.03381 0.0993130943336308 0.0226964623042616 1.94376353767198 0.195519249741098
845.48441 0.0986659457656399 0.022504856616192 1.93504909782829 0.194146352910604
849.93502 0.0973281561373873 0.0225042904081966 1.9263044899 0.192753648955083
854.38562 0.0966637696371432 0.0223236466028243 1.91774154860321 0.191379944947062
858.83622 0.0957152597410166 0.0222492160515484 1.90954798835247 0.190063442978777
863.28682 0.0952172634090903 0.0220992144655131 1.90182818213157 0.188828267264835
867.73742 0.0947013039208258 0.0220238383719158 1.89457574943137 0.18767831880885
872.18803 0.0945700485810645 0.0219338600691439 1.88768649308064 0.186601073787421
876.63863 0.0938827260411309 0.022056202416048 1.88100371375863 0.18557956330114
881.08923 0.0942170828365003 0.021998139555461 1.87437504477286 0.184606551688891
885.53983 0.0947051368402071 0.0219586814715045 1.86769773463598 0.183693338299748
889.99043 0.094695225275458 0.0220407331013812 1.86093534999649 0.18286781566012
894.44104 0.0950661508753925 0.0220385059492537 1.85410311292145 0.182161986738648
898.89164 0.0952599415706828 0.0220463090231841 1.84723327461565 0.181594643312982
903.34224 0.0950304788834079 0.0220973041097638 1.84033982911375 0.1811571719338
907.79284 0.094921599716157 0.0220904678064224 1.83340192401216 0.180808948716065
912.24344 0.0944252218735377 0.0221392891851005 1.82637488963768 0.180484651343032
916.69405 0.0940423400969304 0.0221748669634203 1.81922467795347 0.180111545910117
921.14465 0.0936134625263 0.0222545070806093 1.81196991895907 0.179631307197861
925.59525 0.0932038638861207 0.0223968961590649 1.80471097268766 0.179018869858563
930.04585 0.0929815607086035 0.0225903034778051 1.79763105510437 0.17829135652338
934.49645 0.0932330739025195 0.0227721422777252 1.79096528229483 0.177503344795557
938.94706 0.0934758123712727 0.0230616052281172 1.78460261048193 0.176877794903512
943.39766 0.0938242757858687 0.0234248242630006 1.77889691362877 0.176412556394285
947.84826 0.0940568269861811 0.0238819988531351 1.77444125125732 0.175935364990443
952.29886 0.0943384334411961 0.0243288700595322 1.77086702346914 0.17560723881548
956.74946 0.0944720627379386 0.0247780446322134 1.76805162345293 0.175408919168041
961.20007 0.0945425334431001 0.0251418731496478 1.76580792967294 0.175297773099501
965.65067 0.0944185596430663 0.0254343550186702 1.76392233744519 0.175219837661802
970.10127 0.0944951296924362 0.0254849696151683 1.76218248389006 0.1751202655878
974.55187 0.0942221498306877 0.0255134482380307 1.76038947341348 0.174949172147033
979.00247 0.0937302768769347 0.0254816210946197 1.75835817026412 0.174662647261552
983.45308 0.0929917505802116 0.0254145876900507 1.75591625409153 0.174221354695374
987.90368 0.0920790902199715 0.025293477146676 1.75291287354457 0.173590330772764
992.35428 0.0910110930222025 0.0251182152002891 1.749240861397 0.172742625949689
996.80488 0.0898021208341554 0.0248916809779341 1.74486791587773 0.171666760526527
1001.25548 0.0884244246911307 0.0246401662469869 1.73986325413194 0.170374686096818
1005.70609 0.0869884880914808 0.0243461567554476 1.73440477083978 0.168905382321022
1010.15669 0.0855268646079812 0.0240330022206073 1.72875710780127 0.167320473388616
1014.60729 0.0840080001572478 0.0237536030907888 1.72322131040742 0.165691838495282
1019.05789 0.0825932144464818 0.0234822565104307 1.71806945856255 0.164085238390534
1023.50849 0.0813448731679222 0.0232200856826252 1.71348405279444 0.16254596295004
1027.9591 0.0801689935531775 0.0230105744593128 1.70952211854378 0.161091855908645
1032.4097 0.0791938737989864 0.0227954264161875 1.70611571615753 0.159716234121536
1036.8603 0.0783159157595485 0.0225936039515885 1.7031070264571 0.158399485044429
1041.3109 0.0775122643356832 0.0223912658414226 1.70030494443824 0.157124812009996
1045.76151 0.0767168408557093 0.0221984871069872 1.69754231140276 0.155891584546523
1050.21211 0.0759483096803152 0.0220064334380259 1.69471512083318 0.154720400681144
1054.66271 0.0751988022209381 0.0218305792334449 1.69179271578626 0.153647335460508
1059.11331 0.0745101952091135 0.0216767876704464 1.68880094324127 0.152709846734825
1063.56391 0.0739125663724074 0.0215567067806171 1.6857893256576 0.151930688048768
1068.01452 0.0734207861034561 0.0214809272062469 1.68279839620237 0.151307105321233
1072.46512 0.0730843325100053 0.0214353972731297 1.67984079682357 0.150810137977827
1076.91572 0.0728851798673094 0.0214194164577898 1.67690134501332 0.150394395359094
1081.36632 0.0727858772245502 0.0214319426915841 1.67395304996571 0.150014426293159
1085.81692 0.0727813215422499 0.0214595166274952 1.67097849546728 0.149641087016183
1090.26753 0.0728614857814717 0.0214980985111519 1.66798534954304 0.149271349128102
1094.71813 0.0730815316438185 0.021532604416859 1.66500882792835 0.14892763190487
1099.16873 0.0734012435555415 0.0215990712655968 1.66210044682822 0.148646951989546
1103.61933 0.0739411030471909 0.021688027779183 1.65930987662274 0.148464386662494
1108.06993 0.0747876754697035 0.0218138682279396 1.65666875058331 0.148397442601803
1112.52054 0.0760432343024234 0.021991855121471 1.65418416488537 0.148437449127727
1116.97114 0.077875966263771 0.0222135952364983 1.6518443473375 0.148551194012561
1121.42174 0.0802594701389358 0.0225410471965311 1.64963229864453 0.148691901854237
1125.87234 0.0833890167659128 0.0229388146446983 1.64754003713101 0.148815152260495
1130.32294 0.0872596952393269 0.0234290209452656 1.64557499041051 0.148893440574593
1134.77355 0.0919273221945212 0.0239829221226983 1.64375434918976 0.148923848436018
1139.22415 0.0973227384242812 0.0245903615538105 1.64208906772544 0.148926079189472
1143.67475 0.103317027584196 0.0252336896960646 1.64056398696249 0.148931761494945
1148.12535 0.109592970269886 0.0259514440934036 1.63912388360465 0.148969336765301
1152.57595 0.116118246833496 0.0266525052504865 1.63767280885883 0.149050487879778
1157.02656 0.122767403051241 0.0272818825908633 1.63608979605276 0.14916358669119
1161.47716 0.129284773990722 0.027853094091073 1.63425786918171 0.149276757362267
1165.92776 0.135586651742006 0.028343202254933 1.63209763783075 0.149349011972616
1170.37836 0.141690022836491 0.0287022633313005 1.62959542438626 0.149344779495108
1174.82896 0.147410454488164 0.0289724575901638 1.62681622708877 0.149246206077081
1179.27957 0.152577266494095 0.0292593581392355 1.62389657712213 0.14905922957536
1183.73017 0.157122382499532 0.0295310375655691 1.62101806015999 0.148812010431365
1188.18077 0.161056186296472 0.0297159842717255 1.61836719594079 0.148546507775413
1192.63137 0.163891095765492 0.0299838913933597 1.61609202925799 0.148305690293832
1197.08197 0.165762023691082 0.0301481295454732 1.6142660446169 0.148119867319043
1201.53258 0.166217441157099 0.0302600918090549 1.61286899817914 0.147996198696923
1205.98318 0.165268971755661 0.0302302683366454 1.61179038582595 0.147914854260243
1210.43378 0.16290973651465 0.0300308334614983 1.61085532048482 0.147833416887253
1214.88438 0.159032098955829 0.0297219395152253 1.6098677403214 0.147698789330172
1219.33498 0.153960081895961 0.0292905118938626 1.60866006486651 0.147463567881937
1223.78559 0.148025233005773 0.0287609410234339 1.60713639349018 0.147102415895688
1228.23619 0.141362233610714 0.0282865731497527 1.6052971149279 0.146623419117403
1232.68679 0.134532870697742 0.0278611418708866 1.60323663584904 0.146070151905286
1237.13739 0.128099548263551 0.0274084790159345 1.60111414118663 0.145512747122569
1241.58799 0.122082318477378 0.027087380235549 1.59910452509554 0.145029805622881
1246.0386 0.11659300984424 0.0269456175140577 1.59734378948991 0.144686367264156
1250.4892 0.112236665382571 0.0267419889855746 1.5958858237659 0.144514698159012
1254.9398 0.108668552170814 0.0266142299963958 1.59468424208469 0.144503827403513
1259.3904 0.105788851986058 0.0265558520554833 1.59360640061273 0.144601309554891
1263.841 0.103620986291364 0.0264908041899404 1.59247562169398 0.144727087454598
1268.29161 0.101995294023041 0.0264330224475372 1.59112886947218 0.144795653459352
1272.74221 0.100871325402668 0.0263613476296404 1.58947186386595 0.144739790678378
1277.19281 0.100265091181845 0.0262589472282398 1.58751382898187 0.144528349710543
1281.64341 0.0999875212338512 0.0262217346200164 1.58537164511811 0.144172697227892
1286.09401 0.100191597084878 0.0262243730445697 1.58324228183192 0.143720595638743
1290.54462 0.101019993484346 0.0262553264896328 1.58135294319904 0.143240676980655
1294.99522 0.102502747380373 0.0263486768711616 1.57990480352465 0.142803257378448
1299.44582 0.104591745402877 0.0265601296721377 1.57902651122042 0.142463319910617
1303.89642 0.107457259352371 0.026836849374623 1.57875007018208 0.142249886301088
1308.34702 0.110919335235792 0.0272527785894281 1.57901280003138 0.142163571618974
1312.79763 0.115097455920768 0.0277432452500881 1.57968150498376 0.142181918759332
1317.24823 0.119847296764249 0.0283407971224982 1.58058942343838 0.142270226881572
1321.69883 0.12517602818441 0.0290170192778439 1.58157444810222 0.142394251342539
1326.14943 0.131061279150785 0.0297625648449598 1.5825103599852 0.142530998705448
1330.60003 0.137604152550598 0.0305429125731052 1.58332618431453 0.142674869312243
1335.05064 0.14496925264624 0.0313132457531568 1.58401373966721 0.142838410955193
1339.50124 0.153451275995764 0.0319973042120469 1.58462628307285 0.143048688843639
1343.95184 0.163099924192564 0.032674423671231 1.58527143551527 0.14334094850049
1348.40244 0.174308925874259 0.0334048260327924 1.58610188852706 0.143751284873538
1352.85304 0.187581231263864 0.0342139924159138 1.58730538256984 0.144309842715305
1357.30365 0.203867410094047 0.035018010762837 1.58909529321896 0.145036182472215
1361.75425 0.223357457684546 0.0362034447452258 1.59170288958525 0.14593806087996
1366.20485 0.247427940975442 0.0377357247040512 1.59537144228555 0.147013814647051
1370.65545 0.276801601191009 0.0399169352245099 1.60035213687812 0.148258046991191
1375.10605 0.312047886239296 0.0431143587362378 1.60689884983524 0.149670739886218
1379.55666 0.353705420284398 0.0476555040567129 1.61525729887307 0.151270179383206
1384.00726 0.402004618294262 0.0536241927377203 1.62564339798491 0.15310722542954
1388.45786 0.457195098581249 0.0611956054082651 1.63820719092043 0.155272585991773
1392.90846 0.51878665103932 0.0702908734314676 1.65298478559841 0.157885379897615
1397.35906 0.585243490062473 0.0808355769570406 1.66984675336484 0.161056707222146
1401.80967 0.654951435573298 0.0926692247410654 1.68845803494389 0.164836974601487
1406.26027 0.726266255826142 0.105349201607598 1.70826643157733 0.169170278629062
1410.71087 0.797312050836013 0.118240042636111 1.72853211642868 0.173880062429643
1415.16147 0.864795726966621 0.131365898804867 1.74840135212417 0.178694883513299
1419.61207 0.9268741903303 0.143870596793052 1.76701323810174 0.183302979544143
1424.06268 0.982698390801736 0.155329972163002 1.78361674493613 0.187414226095135
1428.51328 1.03032265072503 0.165441928599213 1.79766938485505 0.19081084146642
1432.96388 1.06970651261893 0.173767918513735 1.80889156550355 0.193376529634936
1437.41448 1.09890229389032 0.180615644930595 1.81726369183573 0.195100861726013
1441.86508 1.1186602256059 0.185840447284768 1.8229693075583 0.196060151701611
1446.31569 1.13053273715152 0.189137480321263 1.82630438744355 0.196380635536217
1450.76629 1.13424657175471 0.190886588692915 1.82758240138148 0.19619499725241
