wavelength[nm] mua[mm-1] std_mua[mm-1] rmus[mm-1] std_rmus[mm-1]
369.27 0.93568111701173 0.202122494320572 4.36432501404078 0.606066449938505
373.7206 0.942793698369049 0.201930186325838 4.36486185173214 0.603382977572165
378.1712 0.953016178753979 0.20323379564018 4.3663214464733 0.601179070218651
382.62181 0.967928092598469 0.204877308804878 4.36718949326019 0.597911634491402
387.07241 0.995729158515752 0.204153783558714 4.36592410849304 0.592246713760905
391.52301 1.025831491699 0.204963759073465 4.36123380997201 0.583407244916259
395.97361 1.06448823625496 0.211807572526631 4.3522658075219 0.571385203522174
400.42421 1.10339979382512 0.219677054521158 4.33865940479503 0.556952743732725
404.87482 1.14105621413064 0.228215534443629 4.32046595213441 0.541473055631326
409.32542 1.17418057492874 0.234227979580581 4.29570256887635 0.526462175658008
413.77602 1.19908440608467 0.237320039808268 4.26486802576452 0.513562454043458
418.22662 1.2110729575922 0.236431559161646 4.22866769426153 0.504068339457055
422.67722 1.20148653479752 0.23140698389856 4.18345383948542 0.500517186299425
427.12783 1.16727072357257 0.221130758485939 4.12863851517907 0.502329692232825
431.57843 1.10814772253564 0.205261839449653 4.08079519889869 0.511760870576625
436.02903 1.02701204686106 0.185880072422939 4.01787349744418 0.521219932658488
440.47963 0.935666121521174 0.164378904109054 3.94094437559302 0.527336511338866
444.93023 0.831005331150892 0.141886107601423 3.85334816576259 0.528313766907431
449.38084 0.723608845165605 0.121473823084538 3.7599929211202 0.524065161473987
453.83144 0.626144279505429 0.102975372549011 3.66625157556138 0.515734383637335
458.28204 0.543975875154845 0.08795507625196 3.57678104940386 0.50496429468366
462.73264 0.478748892449058 0.0763447952733217 3.49459555603649 0.493259329911525
467.18324 0.429430693859908 0.0668417431142086 3.42063756009628 0.481642766343469
471.63385 0.394925603987075 0.0605044391011124 3.35392625727416 0.470613414845395
476.08445 0.371814024260626 0.0562583338932086 3.29218814140939 0.460273044729831
480.53505 0.356334161563958 0.0534499425720469 3.23274289735414 0.450494721389492
484.98565 0.345301997183649 0.0514438591714456 3.17336461205016 0.441074426043336
489.43625 0.336674565000146 0.0495719819712541 3.11287917882676 0.431853287393159
493.88686 0.330020215154953 0.0483893716224507 3.05136466566868 0.422793304618324
498.33746 0.32469384086219 0.0473022716321324 2.98995556084212 0.413986985689782
502.78806 0.32113170194058 0.0461277974837105 2.9303688822289 0.405609918516673
507.23866 0.318964044414612 0.0449559863063341 2.87433140071526 0.397854965184162
511.68926 0.31751841310786 0.0436765605983426 2.82308871218495 0.390879214816186
516.13987 0.317511844529587 0.0426547513160435 2.77712061553023 0.384762973902949
520.59047 0.31841260603648 0.0424934840736711 2.73610463481143 0.379469590470422
525.04107 0.319247349662895 0.0422439261258728 2.6990902265296 0.374820116916439
529.49167 0.320304953179596 0.0422730981737646 2.66479252462772 0.370517958524467
533.94227 0.321207496129993 0.0425410483375887 2.63190129613799 0.366234330924154
538.39288 0.322192529119735 0.0431082501981896 2.59932017686835 0.361714601288856
542.84348 0.322700541173551 0.0433767676730598 2.56629187557883 0.356843726768245
547.29408 0.322031005216115 0.0432634996702433 2.53240886718344 0.351640071954322
551.74468 0.319573344942001 0.0429168387244937 2.49754065497651 0.346198068613697
556.19528 0.314944097451889 0.0421708786978447 2.46172365943662 0.340623802636988
560.64589 0.308164741699798 0.0409707740996934 2.42505665744485 0.334992728641835
565.09649 0.299251822294094 0.0393640870837735 2.38763083385735 0.329332710011366
569.54709 0.287608585042263 0.0371394673481841 2.34950657431495 0.323626848769698
573.99769 0.274317198670743 0.0347404627538484 2.31073285149709 0.317836349779126
578.44829 0.259546042444696 0.0324313353742709 2.27139541379488 0.311940933151723
582.8989 0.244113653023409 0.029814577972081 2.23167395670114 0.305977277589428
587.3495 0.228997153377682 0.0275882419744355 2.1918871249969 0.300045463662306
591.8001 0.21307320244933 0.0254370159878915 2.1525073072272 0.294270287126667
596.2507 0.197652750829842 0.0238080415606983 2.11413222205767 0.288740211301317
600.7013 0.183388021888004 0.0227490782998225 2.07741155511789 0.28346871384904
605.15191 0.170467709197373 0.0221530341504333 2.04293911447135 0.278407422919043
609.60251 0.159281280599194 0.021901083807237 2.01113375577472 0.273499673248501
614.05311 0.149091116607203 0.0218127853941985 1.98214116398738 0.2687333205735
618.50371 0.141325353901276 0.0219120778645925 1.95578731913999 0.264156722412683
622.95431 0.135205230051701 0.0219380877305224 1.93160467495707 0.259852036923294
627.40492 0.130116877646895 0.0217744645178832 1.90893189551704 0.255888357334037
631.85552 0.126539573193344 0.0216843958926198 1.88706537238607 0.252284625150665
636.30612 0.123332546439305 0.0215680524020854 1.86542257893707 0.248999669766075
640.75672 0.120598719319792 0.0215734974607759 1.84367044168523 0.24594847612513
645.20732 0.118383215369776 0.0213971178397791 1.82178053597776 0.243032292360408
649.65793 0.116054606273374 0.0211230367957521 1.79999451293067 0.240169033639567
654.10853 0.113775189268024 0.0210727080675304 1.7787113249037 0.23731448662399
658.55913 0.111714541425189 0.0211023831086483 1.75833302173502 0.234469068578984
663.00973 0.110008880898461 0.0209624140028103 1.73911859955252 0.231668882289045
667.46033 0.108356913790792 0.0209218271179628 1.72109202326387 0.228964276171264
671.91094 0.106478800353444 0.020804879581697 1.70403119385034 0.226394213590594
676.36154 0.104713529897398 0.0208118770195715 1.68753688660825 0.223966979984683
680.81214 0.102771434029487 0.0209912282352162 1.67115415048509 0.221654547228735
685.26274 0.100359694954583 0.0209588953498786 1.654502640477 0.219401149896351
689.71334 0.0985965402457723 0.0209448255166315 1.6373721859406 0.217140545856194
694.16395 0.0964911216965443 0.0208501960885723 1.61975487773575 0.214815076092227
698.61455 0.0945371866475382 0.0206816919461882 1.60180906020923 0.212391524914867
703.06515 0.0928794666250227 0.020599906103015 1.5837748138398 0.209870469792269
707.51575 0.0911856615590544 0.0203566822698441 1.56587585191593 0.207286377377
711.96635 0.0894262843099341 0.0200533189297588 1.54824464688526 0.204696747889481
716.41696 0.0872786401761004 0.0199894089066185 1.53089584524333 0.202162703761339
720.86756 0.0851898468239081 0.0197874218003665 1.51375306983488 0.199728564816687
725.31816 0.0833573537974729 0.0195388038231566 1.4967138404296 0.197409591621376
729.76876 0.0821529121653785 0.0192261851121144 1.47972404593771 0.195193017741566
734.21936 0.0808851820721154 0.0188606657818134 1.46283166561998 0.193049765259955
738.66997 0.0793520405449803 0.0187226404784906 1.4461989991054 0.190949195250391
743.12057 0.0776679044901184 0.0184832319642865 1.43006927421102 0.18886973698853
747.57117 0.0761591218488674 0.0183611086659787 1.41470056279401 0.186802467256165
752.02177 0.0748848747341539 0.018091639140767 1.4002910998093 0.184748945559491
756.47237 0.0731903056183609 0.0180374034527443 1.38692191938796 0.182715972652471
760.92298 0.0715686921590594 0.0179054443579545 1.37453514801179 0.180709823660959
765.37358 0.0698224121099788 0.017814756446474 1.36295300847713 0.178732108970027
769.82418 0.0684369549623878 0.0175767209440145 1.35192863690656 0.176779010372525
774.27478 0.0666742364765752 0.0175523321164398 1.34121061871079 0.174844654761403
778.72538 0.0649396825344906 0.0174137504111627 1.33060082545021 0.172927056122154
783.17599 0.0628499607250899 0.0174314780214996 1.31999017534304 0.171033210871461
787.62659 0.0611823988864329 0.0172398381120041 1.30936627773839 0.169179891754706
792.07719 0.0598092286781762 0.0170110509329758 1.29879648043894 0.167388781187177
796.52779 0.0581592672999288 0.0168080772516481 1.28839671682212 0.165677819177853
800.97839 0.0567875571812872 0.0167015552077707 1.27829791383785 0.164052680683744
805.429 0.0557782466715697 0.0164165813311168 1.26861897000807 0.162502599744801
809.8796 0.0541812093300855 0.0163256468648709 1.25944996258575 0.161002974113041
814.3302 0.0533891892737767 0.0159961056597319 1.25084400404418 0.159524029018456
818.7808 0.0522551643785064 0.015806155378064 1.24281388193661 0.158041894107241
823.2314 0.0512913257405037 0.0154969663052563 1.23532982876272 0.156546773613017
827.68201 0.0500926839780422 0.0152833652926684 1.22831771211048 0.15504414188075
832.13261 0.0488301191973541 0.0150043594790446 1.22166008404635 0.153548399280024
836.58321 0.047763412626492 0.0147294340895799 1.21520377065466 0.152072280869566
841.03381 0.0465056187770258 0.0145344805743886 1.20877707776039 0.150617476919537
845.48441 0.0452872858160104 0.0143132770790974 1.20221580309137 0.149170953879248
849.93502 0.0438976624932372 0.0141074423096689 1.19539330759318 0.147708667083144
854.38562 0.0425699813666392 0.0139575447519958 1.18824685538914 0.146205197584855
858.83622 0.041470841972266 0.0138061926085274 1.18079182660474 0.144645566832782
863.28682 0.040281639040594 0.0137978360654918 1.17311870985878 0.143034747097481
867.73742 0.0391651266938012 0.0138359025093568 1.16537234561644 0.141400838329517
872.18803 0.0382020812000147 0.0139038914629483 1.15771862747557 0.139789993771322
876.63863 0.0372777936905301 0.0140157194976312 1.1503076626792 0.13825423480411
881.08923 0.036785042203577 0.0140717358721259 1.1432429569744 0.13683607960165
885.53983 0.0363451234169799 0.0140787427540665 1.13656418143342 0.135555355293266
889.99043 0.0359741027907824 0.0140149052304628 1.13024607848527 0.134402593440715
894.44104 0.035338392915393 0.0139410247139659 1.12421131134013 0.133341071167964
898.89164 0.0346193945758126 0.0138260018904892 1.11835149350586 0.132316669119097
903.34224 0.0338605717680272 0.0137108273138512 1.11254929952158 0.131272274674554
907.79284 0.0332129365965576 0.0135977779746727 1.10669648193495 0.130162395627502
912.24344 0.0326243762806319 0.0135548793591824 1.10070520184361 0.128963860767981
916.69405 0.0322266367404515 0.0135943042032601 1.09451347701142 0.12768031855255
921.14465 0.0321210068228192 0.0137143354218181 1.0880874818276 0.126340632966103
925.59525 0.0324274734216037 0.0138818427000307 1.08142317936575 0.124993049659724
930.04585 0.0331305074495388 0.0140787565407563 1.07454872447787 0.123697624584101
934.49645 0.0341173934745149 0.0142984210098069 1.06752632344941 0.122518541671933
938.94706 0.0353176288087942 0.0145167501935306 1.06045086212072 0.121516898166455
943.39766 0.0366901003696663 0.0147013461609863 1.05344236628835 0.120743911620125
947.84826 0.0381014111076338 0.0148494077498293 1.04663059182582 0.12023456760803
952.29886 0.0393563334310121 0.0149760427802045 1.04013308897221 0.120002401256493
956.74946 0.0403608332348758 0.0150789412378716 1.03403045896636 0.120036347278454
961.20007 0.0412811819572902 0.0151083827069521 1.0283446086334 0.120300533965124
965.65067 0.0418052409242274 0.0151192235712301 1.02302595420865 0.12073736612897
970.10127 0.0421573211703375 0.0150824483835434 1.01795365100991 0.121273552068248
974.55187 0.0422407429489256 0.015007417546427 1.01295030845874 0.121828523806987
979.00247 0.0421039603844973 0.0149144186525952 1.00780886604235 0.122324328583959
983.45308 0.0416782114135246 0.0148305731549363 1.00232663585364 0.122695895382238
987.90368 0.0411703603840551 0.0147581576721352 0.996339915054336 0.12290016847349
992.35428 0.0403877913320005 0.0147411717284556 0.989752275279291 0.122922194281438
996.80488 0.0395178904699813 0.0147855199598583 0.982551454906067 0.122776698091791
1001.25548 0.0386008954392656 0.0148809678791978 0.97481173339161 0.122504450423232
1005.70609 0.0378573154017754 0.0150012784741215 0.966681720261843 0.122164143933726
1010.15669 0.0373094037545998 0.0151473828879877 0.958360148910432 0.121821551981662
1014.60729 0.0371109015660876 0.015273950947379 0.950064155686166 0.121537992037508
1019.05789 0.0371349869509252 0.0154118009164281 0.941996096937414 0.121360096208359
1023.50849 0.0373869357698396 0.0155490955447366 0.934314752745624 0.121312266452335
1027.9591 0.0380508811415602 0.015633649144236 0.92711606013895 0.121392978780705
1032.4097 0.0387350895884742 0.0157444001631814 0.92042664635292 0.121575751372516
1036.8603 0.0395505900076828 0.0158592930674236 0.914210718954285 0.121814840777974
1041.3109 0.0403817591705412 0.0159967545668441 0.908388515062545 0.12205490832624
1045.76151 0.0411046974324567 0.0161600389076482 0.902861835642512 0.122242610071965
1050.21211 0.041840549438766 0.016343523127156 0.897541066080314 0.122337474118176
1054.66271 0.04243679505432 0.0165515025761083 0.892367617783701 0.122319235731616
1059.11331 0.0429294271198725 0.0167755064263994 0.887327334159223 0.122189726727228
1063.56391 0.0433289501340315 0.0170001993304249 0.882452233553038 0.121968726190231
1068.01452 0.0435352151318343 0.0171918088307189 0.877810946776968 0.121685151001599
1072.46512 0.0435887291230499 0.0173194084340811 0.87349081789717 0.121366580009947
1076.91572 0.0434848120909682 0.0173674676441163 0.86957613664315 0.121030628467315
1081.36632 0.0429953244403959 0.0173101480563745 0.866128080087171 0.120680995468327
1085.81692 0.0425033768192881 0.017169872320008 0.863170740634617 0.120308914487201
1090.26753 0.0418243104576627 0.0169414390084853 0.86068614629013 0.119898743406587
1094.71813 0.0411498208815823 0.0166625074247601 0.858618873202067 0.119435215916178
1099.16873 0.0404453180939949 0.0163593438373366 0.856888137609835 0.118909823425264
1103.61933 0.0398315490248643 0.0160752134385209 0.855404160795781 0.11832476245086
1108.06993 0.0397386973294291 0.0158953311104503 0.854084179818114 0.117693772781518
1112.52054 0.040371574092701 0.0158743426646283 0.852864220114547 0.117040020162905
1116.97114 0.0415671717155844 0.0160384865101808 0.851704162074698 0.116391680123714
1121.42174 0.0434696463337742 0.016420609815747 0.850585221312908 0.115776236840276
1125.87234 0.0463885061996682 0.0170168258412117 0.849501815881981 0.11521495265977
1130.32294 0.050358958680724 0.0178348631625091 0.848450614728957 0.114718890360396
1134.77355 0.0551414923479169 0.0188714716073643 0.84742059521932 0.114287456626422
1139.22415 0.0606354370993806 0.020008902807697 0.846387383571325 0.113909567390072
1143.67475 0.0665910658752974 0.0212236458305789 0.845313202083482 0.113566636773935
1148.12535 0.0729729260843549 0.022424440889722 0.84415248589322 0.113236360299278
1152.57595 0.0795631436564497 0.0235498669701745 0.84286067818214 0.112896389555434
1157.02656 0.0859566479493317 0.0245934527428198 0.841403143096681 0.11252760139633
1161.47716 0.091746325000363 0.025594153235005 0.839761275572331 0.112117045479649
1165.92776 0.0974179229621123 0.0264037475936752 0.837933729594806 0.111660538493759
1170.37836 0.102220276265891 0.0271922316203886 0.835933189136756 0.11116455843766
1174.82896 0.106396149461715 0.0278675239346999 0.833780131894309 0.110646539979881
1179.27957 0.109832166062493 0.0284604907950827 0.831496359068896 0.110132696673213
1183.73017 0.112432194687911 0.0289875070584649 0.829100850306424 0.109653102999524
1188.18077 0.114198623278343 0.0294300709549001 0.826608929859269 0.109234863512338
1192.63137 0.115602446549508 0.029709811579447 0.824034642939604 0.108895482630911
1197.08197 0.115988115447858 0.0300066220950342 0.821394167741796 0.108638978553862
1201.53258 0.11589082072737 0.0302322311287442 0.818707893199411 0.108456653092841
1205.98318 0.115435881811076 0.0304013335695729 0.815999392911439 0.10833258733503
1210.43378 0.11445111616274 0.0306036348564271 0.813290728971489 0.108251666904646
1214.88438 0.113457104185115 0.0307715067903655 0.810595915788458 0.108206690317865
1219.33498 0.112483980409293 0.0309241312787849 0.807915091450515 0.108201301725399
1223.78559 0.111260904444545 0.0311599458120619 0.805232454737331 0.108247422787105
1228.23619 0.110190011588787 0.0313822118789667 0.802519922020032 0.108358325226078
1232.68679 0.109184096548023 0.0316058742465122 0.799746091190337 0.10854022679708
1237.13739 0.108062688412659 0.0318891114842562 0.796888506014931 0.10878587055373
1241.58799 0.107106363491384 0.0321789913502557 0.793945111513563 0.109072536565101
1246.0386 0.1063225807969 0.032462599129208 0.790940930218824 0.109365421718742
1250.4892 0.105710943305067 0.0327847593301105 0.787927230858389 0.109625603978861
1254.9398 0.105469830301661 0.0331156488021184 0.78497246589291 0.109820222306547
1259.3904 0.105463331639422 0.0335103172525714 0.782147458416193 0.109931698275591
1263.841 0.105787799871292 0.0339824461263708 0.779508850022365 0.109962667807252
1268.29161 0.106657126455366 0.0345053928422636 0.777085994988972 0.109934600673159
1272.74221 0.108183828393293 0.0350754097065845 0.774875811170289 0.109880265223483
1277.19281 0.110296298381578 0.03576867256451 0.772847681983524 0.109832433550781
1281.64341 0.113164623009301 0.0365528845339125 0.770958237316225 0.109812825612906
1286.09401 0.116651718924062 0.0374819061851973 0.769172307469527 0.109825203502468
1290.54462 0.121102750411853 0.0384428520857294 0.76748453255406 0.10985522345363
1294.99522 0.126265418458525 0.0395203877643636 0.7659353638213 0.109877278248522
1299.44582 0.132433574886983 0.0405584493959848 0.764615782671768 0.109865828679751
1303.89642 0.139040628312751 0.0416623623038922 0.763658339743077 0.109806829328756
1308.34702 0.146376929850909 0.0426962651864361 0.763215205454296 0.109704304542063
1312.79763 0.154693441337139 0.0435007377938526 0.763428290337663 0.109578868554424
1317.24823 0.163754495398205 0.0441566924847269 0.76439964882923 0.109458254397482
1321.69883 0.17380280612357 0.0445758284389089 0.766171138622641 0.109363376593092
1326.14943 0.18397395219358 0.0451805836131063 0.768721709719863 0.109295780702469
1330.60003 0.19519578109452 0.0457284490195496 0.771985971141423 0.10923225811505
1335.05064 0.208366826445143 0.0459038388291045 0.775892424760092 0.109130345192713
1339.50124 0.223116938548595 0.0461154002390581 0.780413903931387 0.108944803100767
1343.95184 0.239467207311301 0.0465785884189735 0.785617915744311 0.108651016775118
1348.40244 0.258787366639406 0.0469998449901512 0.791704413629622 0.108267971757334
1352.85304 0.281791009744192 0.0474926773436612 0.799020151446635 0.107872337258984
1357.30365 0.309743985097512 0.0479573475980295 0.808045009875795 0.10759745300172
1361.75425 0.343290132571796 0.0487162359874939 0.819352793151678 0.107616205432047
1366.20485 0.383962684474337 0.0494660907292348 0.833554298639574 0.108112976863673
1370.65545 0.432858061183345 0.0505225271162595 0.851234733967253 0.10925423298248
1375.10605 0.492482530594417 0.0513850088964136 0.872895324193298 0.1111675937523
1379.55666 0.563126201775967 0.0525241872546008 0.898905317631304 0.113935267023586
1384.00726 0.644710000121232 0.0547272018669511 0.929465092270618 0.117601543736341
1388.45786 0.739158268227276 0.0577926496291292 0.96457562748278 0.122188744070002
1392.90846 0.846196803639777 0.0623219280225687 1.00401071774722 0.127713753021215
1397.35906 0.965442544654579 0.068629302519739 1.04728979337363 0.134198365586804
1401.80967 1.09587522822225 0.0766460767703967 1.09365652486716 0.141669449920445
1406.26027 1.23538846375949 0.0863630191515675 1.1420748118281 0.150147213012648
1410.71087 1.38261323582734 0.0972137568751078 1.19125497099909 0.159620719226598
1415.16147 1.53344903202975 0.109136689360135 1.2397225705839 0.170011545805669
1419.61207 1.68446998762228 0.121998660291883 1.28593031523734 0.18113160292925
1424.06268 1.83064639793376 0.135786238354043 1.32840171559334 0.192649245643763
1428.51328 1.96782932121277 0.150289495923121 1.36588252365048 0.204082745600912
1432.96388 2.09212561323022 0.164997766080141 1.39746716859806 0.214835068940523
1437.41448 2.19925077623462 0.179352332878398 1.42267173621198 0.224270012830642
